# Source: SwiftJ1727
# Position: RA=-98.069534 deg, Dec=-16.205324 deg
# MS: 1697283077_sdp_l0_1024ch_SwiftJ1727.ms
# Scan: all
# Start MJD: 60231.5280578663
# End MJD: 60231.5383312977
# Middle MJD: 60231.5331945820
# Duration: 0.2466 hours
# Columns: Channel Freq[GHz] I[mJy] Q[mJy] U[mJy] V[mJy] Plin[mJy] rms_I rms_Q rms_U rms_V rms_Plin
#
   0     0.9020   908.1303     0.8693    -2.5455    -0.5253     2.8677     0.6417     0.5408     0.4702     0.4637     0.7166
   1     0.9036   907.1754     0.8764    -4.2438     0.1421     4.4818     0.4809     0.3940     0.3679     0.3579     0.5390
   2     0.9053   906.6330     1.5952    -3.0897    -0.1992     3.5742     0.4607     0.3516     0.3881     0.3022     0.5237
   3     0.9070   905.8244     1.0970    -3.8036    -0.6940     4.0403     0.4707     0.3753     0.3738     0.3211     0.5297
   4     0.9087   906.8887     1.2147    -3.8599     0.2912     4.1780     0.4137     0.3529     0.3609     0.3064     0.5047
   5     0.9103   906.3718     1.2339    -4.1984     0.1431     4.4393     0.4614     0.3454     0.3895     0.3077     0.5205
   6     0.9120   906.0209     2.3151    -3.4962     0.0053     4.3298     0.4846     0.3762     0.3633     0.3362     0.5230
   7     0.9137   906.0912     1.4706    -3.9138    -0.4005     4.3392     0.4532     0.3639     0.3210     0.3470     0.4853
   8     0.9153   906.5455     1.9025    -3.7720    -0.3746     4.3028     0.4639     0.3356     0.3329     0.3468     0.4727
   9     0.9170   904.9507     0.8668    -4.0169     0.3209     4.2148     0.4573     0.3724     0.3664     0.3552     0.5224
  10     0.9187   905.9891     1.5612    -3.5271    -0.3059     3.9205     0.4780     0.3378     0.3567     0.3641     0.4912
  11     0.9204   905.4114     1.7056    -3.5350    -0.3124     4.0449     0.4288     0.3290     0.3549     0.3257     0.4839
  12     0.9220   905.9218     0.9377    -3.3692     0.4162     3.6041     0.4631     0.3428     0.3756     0.3417     0.5085
  13     0.9237   906.1383     1.9979    -3.5731     0.3893     4.1720     0.5043     0.3645     0.3322     0.3325     0.4932
  14     0.9254   904.4035     0.7777    -2.9791     0.0428     3.1468     0.4596     0.3488     0.3530     0.3099     0.4962
  15     0.9270   904.8760     1.2894    -2.6968     0.2040     3.1457     0.4584     0.3648     0.3878     0.3142     0.5324
  16     0.9287   905.0405     0.6494    -2.9754     1.1979     3.1443     0.4461     0.3275     0.3022     0.3337     0.4456
  17     0.9304   903.8950     0.9697    -2.4765    -0.4133     2.8473     0.4441     0.3348     0.3071     0.3648     0.4543
  18     0.9321   904.9409    -0.0812    -1.9581     0.2777     2.0344     0.4079     0.3644     0.3471     0.3628     0.5033
  19     0.9337   917.7943     2.2944    -0.1740     1.3316     3.5285     1.1975     1.0539     1.0928     1.0150     1.5182
  20     0.9354   913.4549    -0.8847    -2.7225    -6.8977    11.4640     7.8998     5.5257     5.4941     6.8185     7.7922
  21     0.9371   918.1118   -12.2660   -22.6287     2.7846    28.1369     5.7998     3.9493     3.0552     5.0533     4.9931
  22     0.9454   905.9025     3.0431    -3.1231    -5.5744    10.1715     5.9686     4.6593     4.3475     3.3575     6.3726
  23     0.9471   918.6781    -3.6724    -3.2311    -2.5140     6.3390     2.3532     1.8339     1.5982     1.8983     2.4326
  24     0.9488   921.9280    -0.8471    -2.6264     0.0659     3.2568     1.1169     0.6797     0.6937     0.6243     0.9711
  25     0.9504   903.1074     0.6346    -1.1426     0.2732     1.4685     0.4985     0.4160     0.3502     0.3508     0.5438
  26     0.9521   901.8738     0.8013    -1.4086    -0.6728     1.7526     0.3758     0.3325     0.3266     0.3464     0.4661
  27     0.9538   902.9627     1.3589    -1.0412    -0.2849     1.9452     0.4280     0.3595     0.3637     0.3228     0.5114
  28     0.9555   905.3528     2.4484    -1.4747     0.8255     3.0244     0.4840     0.3618     0.4046     0.4218     0.5428
  29     0.9571   905.0958     1.1803    -2.2335    -0.7260     2.7136     0.5428     0.3836     0.4448     0.3923     0.5873
  30     0.9588   905.9384     0.1254    -2.1207     0.2670     2.4956     0.4931     0.4367     0.4435     0.4592     0.6224
  31     0.9605   906.8719     0.7246    -1.1547     0.2473     1.9735     0.5322     0.4405     0.4239     0.4465     0.6113
  32     0.9622   900.9638     1.0370    -1.8959    -0.3051     2.3348     0.3693     0.3016     0.3470     0.3301     0.4597
  33     0.9638   899.3089     1.1553    -2.1207     0.4926     2.4523     0.3666     0.3172     0.3361     0.2979     0.4622
  34     0.9655   899.0905     0.3236    -1.6955    -0.1308     1.8899     0.4144     0.3265     0.3376     0.3211     0.4697
  35     0.9672   899.4010     0.8219    -1.4013     0.1172     1.9363     0.3911     0.3148     0.2955     0.3278     0.4318
  36     0.9688   898.3614     1.3086    -1.3450    -0.5414     2.0774     0.3780     0.3123     0.3150     0.3530     0.4435
  37     0.9705   899.0958     1.2052    -2.1235    -0.9296     2.4554     0.4123     0.3182     0.3280     0.3102     0.4569
  38     0.9722   898.8255     0.9453    -1.8221     0.2754     2.1978     0.3710     0.3447     0.3178     0.3321     0.4689
  39     0.9739   898.5828     1.0880    -1.8246     0.3077     2.2496     0.3875     0.3583     0.3128     0.3048     0.4757
  40     0.9755   898.5775     1.9950    -2.2978     0.2889     3.1482     0.3406     0.2680     0.3067     0.3109     0.4073
  41     0.9772   898.4063     1.6179    -0.9749     0.0898     2.0303     0.3667     0.3194     0.3600     0.2766     0.4813
  42     0.9789   898.0206     0.8867    -2.0154     0.2013     2.3690     0.3401     0.3282     0.3068     0.3212     0.4493
  43     0.9805   897.6718     1.0681    -2.0989    -0.2923     2.4670     0.3836     0.2749     0.2744     0.3078     0.3884
  44     0.9822   896.5924     1.1523    -1.4255    -0.5971     1.9533     0.3326     0.3137     0.3489     0.3159     0.4692
  45     0.9839   895.9680     1.4711    -2.2953    -0.6019     2.8538     0.3729     0.2777     0.2946     0.2734     0.4049
  46     0.9856   895.2477     1.1736    -1.9614    -0.0955     2.4276     0.3581     0.3051     0.2723     0.3044     0.4090
  47     0.9872   896.3594     1.4894    -1.8984    -0.0734     2.5876     0.3628     0.3049     0.3369     0.3199     0.4544
  48     0.9889   896.0016     1.5056    -2.3253    -0.3115     2.7538     0.3560     0.2727     0.3478     0.3214     0.4420
  49     0.9906   895.7717     1.8335    -2.3904     0.0139     3.0877     0.3852     0.2919     0.3161     0.2980     0.4303
  50     0.9922   896.1927     1.9537    -1.4436     0.3583     2.5676     0.3610     0.2873     0.3043     0.3009     0.4185
  51     0.9939   895.6376     1.4926    -1.5196    -0.1057     2.2658     0.3394     0.3043     0.3004     0.2999     0.4276
  52     0.9956   895.4595     1.6361    -2.1227     0.1686     2.7725     0.3285     0.2960     0.3082     0.3056     0.4273
  53     0.9973   894.5651     1.7114    -1.5588    -0.2065     2.4728     0.3715     0.3160     0.2630     0.3079     0.4111
  54     0.9989   894.1479     1.5492    -2.5323    -0.0912     3.0581     0.4009     0.2862     0.2803     0.2611     0.4006
  55     1.0006   895.0511     1.7333    -2.1713     0.2981     2.8635     0.3555     0.3120     0.2897     0.2762     0.4258
  56     1.0023   894.7700     1.1522    -2.4623    -0.3664     2.8031     0.4217     0.3140     0.2748     0.2887     0.4173
  57     1.0039   893.2036     1.7689    -2.1770     0.3124     2.9976     0.3736     0.3119     0.3054     0.3236     0.4366
  58     1.0056   893.0591     2.1481    -1.8026     0.1095     2.9834     0.3698     0.2956     0.3503     0.3032     0.4583
  59     1.0073   893.6099     1.4973    -1.5462    -0.0638     2.2246     0.3771     0.3498     0.2910     0.3164     0.4551
  60     1.0090   892.6001     1.6763    -1.8277     0.3055     2.6089     0.3565     0.3211     0.3630     0.2804     0.4847
  61     1.0106   893.3387     1.7801    -1.6219     0.3937     2.5330     0.3862     0.3338     0.3423     0.2833     0.4781
  62     1.0123   892.8136     2.7099    -2.3452    -0.2894     3.6516     0.3416     0.2895     0.2843     0.3209     0.4058
  63     1.0140   892.8782     2.1838    -1.6158    -0.1730     2.7425     0.3509     0.2934     0.2625     0.3007     0.3937
  64     1.0157   894.4016     2.0879    -1.0340     0.2585     2.5145     0.3321     0.2983     0.3063     0.2923     0.4276
  65     1.0173   892.7177     1.6159    -1.7285     0.1488     2.6318     0.3471     0.2854     0.2929     0.3024     0.4089
  66     1.0190   892.5858     0.9616    -0.9726     0.1692     1.6096     0.3507     0.3114     0.2917     0.2911     0.4267
  67     1.0207   892.3233     0.9146    -1.2405     0.3738     1.6984     0.3418     0.2928     0.2957     0.2736     0.4161
  68     1.0223   892.6901     1.0394    -0.4179    -0.0720     1.3723     0.2797     0.3116     0.3254     0.3028     0.4505
  69     1.0240   893.5235     1.9676    -1.0478    -0.3327     2.3145     0.3408     0.3319     0.3270     0.2823     0.4659
  70     1.0257   892.9213     1.8281    -1.3885    -0.4822     2.4940     0.3482     0.2696     0.2974     0.3222     0.4014
  71     1.0274   891.9992     1.0239    -1.4432     0.4623     1.9734     0.3477     0.3248     0.2981     0.2818     0.4409
  72     1.0290   889.6513     2.8855    -3.9309     0.0832     4.9826     0.4396     0.3533     0.3673     0.3092     0.5097
  73     1.0307   891.2951     2.8037    -3.4047     0.1337     4.4414     0.4646     0.3767     0.3622     0.3880     0.5226
  74     1.0324   892.9232     1.5848    -2.0005    -0.0830     2.6049     0.3765     0.3284     0.3059     0.2805     0.4488
  75     1.0340   891.9417     1.7211    -1.5104    -0.1123     2.4748     0.3359     0.3119     0.2901     0.3126     0.4259
  76     1.0357   891.6156     1.6792    -1.3008     0.2103     2.3254     0.3408     0.2865     0.3233     0.2918     0.4320
  77     1.0374   891.5856     2.4448    -0.7372    -0.3766     2.7016     0.3408     0.3207     0.2985     0.2943     0.4381
  78     1.0391   891.0928     1.6182    -1.1597     0.1642     2.1003     0.3753     0.3047     0.3151     0.2739     0.4383
  79     1.0407   890.2993     1.9789    -1.2130    -0.0147     2.3369     0.3369     0.2928     0.3052     0.3526     0.4229
  80     1.0424   890.3476     1.2655    -0.7616     0.0338     1.6197     0.3371     0.2813     0.2901     0.2950     0.4040
  81     1.0441   888.9332     1.9474    -1.0221     0.0728     2.2663     0.3416     0.3156     0.3255     0.3232     0.4533
  82     1.0457   888.9666     1.3739    -0.4782    -0.0066     1.6754     0.3696     0.2852     0.2900     0.2977     0.4067
  83     1.0474   888.6965     2.3240    -0.7788     0.3879     2.6793     0.3357     0.2802     0.3152     0.3557     0.4218
  84     1.0491   888.7414     1.5733    -0.8960    -0.6161     1.9479     0.4166     0.3041     0.2981     0.3161     0.4259
  85     1.0508   888.9853     1.9852    -0.8272    -0.3509     2.3382     0.3534     0.2752     0.2840     0.2887     0.3955
  86     1.0524   888.4348     1.6138    -1.4963    -0.3434     2.3161     0.3607     0.2978     0.2908     0.2878     0.4162
  87     1.0541   888.8260     2.0091    -0.6582     0.7028     2.2450     0.3506     0.2913     0.2978     0.2578     0.4165
  88     1.0558   888.2394     2.1153    -1.1592     0.4232     2.5252     0.3573     0.2888     0.2997     0.3155     0.4162
  89     1.0574   888.6560     1.8873    -1.1964     0.0656     2.4869     0.3654     0.2777     0.2884     0.2608     0.4004
  90     1.0591   888.9449     1.4196    -0.9210    -0.3685     1.8250     0.3379     0.2764     0.3036     0.3262     0.4106
  91     1.0608   887.8432     1.7902    -0.8183    -0.2076     2.1262     0.3289     0.2802     0.2767     0.2840     0.3938
  92     1.0625   888.0666     2.3456    -1.3454     0.2809     2.9383     0.3641     0.2613     0.3204     0.3157     0.4134
  93     1.0641   888.0947     1.6622    -1.3281     0.1793     2.2402     0.3728     0.2984     0.2759     0.2653     0.4064
  94     1.0658   887.7937     1.9324    -0.8721    -0.2784     2.3122     0.3070     0.2762     0.2799     0.2873     0.3932
  95     1.0675   887.8180     1.5272    -1.5561    -0.0337     2.3073     0.3622     0.3240     0.3171     0.2836     0.4534
  96     1.0692   887.3625     0.9801    -0.8978    -0.2697     1.4675     0.3423     0.3004     0.3043     0.2788     0.4276
  97     1.0708   886.9954     1.4015    -1.4772     0.0887     2.1899     0.3712     0.2729     0.3135     0.3115     0.4156
  98     1.0725   886.1974     2.1008    -1.2304     0.1748     2.5604     0.3584     0.2602     0.3117     0.2724     0.4061
  99     1.0742   886.6463     1.1215    -1.7141    -0.0108     2.1287     0.3617     0.2862     0.2775     0.2889     0.3987
 100     1.0758   887.3258     2.0492    -0.5696     0.0688     2.3006     0.3674     0.3258     0.2786     0.2639     0.4287
 101     1.0775   887.6330     1.4491    -0.1014     0.1817     1.7068     0.3195     0.2521     0.2707     0.2909     0.3699
 102     1.0792   887.9277     0.9663    -0.3694    -0.2069     1.1243     0.3342     0.2798     0.3135     0.3060     0.4202
 103     1.0809   886.3947     1.1826    -0.9700    -0.0105     1.6673     0.3266     0.2935     0.2897     0.2856     0.4124
 104     1.0825   884.2399     1.5712    -2.3442     0.1567     2.9064     0.3671     0.2843     0.3211     0.3125     0.4289
 105     1.0842   885.1143     1.6353    -2.7257    -0.2786     3.2674     0.3563     0.2822     0.3137     0.2769     0.4220
 106     1.0859   885.4421     1.6731    -1.9577     0.4948     2.6371     0.3651     0.2891     0.3302     0.2926     0.4389
 107     1.0875   898.1799    -1.0675    -0.9349     0.3495     2.1818     1.0179     0.7923     0.8469     0.7860     1.1598
 108     1.0926   891.0968     2.0000    -2.0506     0.3292     3.5552     0.8971     0.6396     0.6238     0.6497     0.8934
 109     1.0942   885.8226     1.3291    -0.2300     0.1138     1.5001     0.3952     0.2792     0.2994     0.2651     0.4094
 110     1.0959   885.2190     0.9081    -0.4407    -0.2605     1.2167     0.3589     0.2823     0.2853     0.2743     0.4014
 111     1.0976   884.3204     1.4668    -0.7495    -0.3325     1.8205     0.3755     0.2752     0.3012     0.2949     0.4081
 112     1.0992   884.7775     1.7641    -0.3281    -0.0459     1.9689     0.3401     0.2956     0.3257     0.3008     0.4398
 113     1.1009   885.0970     1.6398    -0.3751    -0.2897     1.9294     0.2904     0.2733     0.3192     0.2461     0.4203
 114     1.1026   884.8021     1.5839    -1.8550     0.3838     2.5355     0.3912     0.3686     0.3361     0.3198     0.4988
 115     1.1043   885.4985     1.6858    -0.8418     0.1954     1.9279     0.3642     0.3146     0.2955     0.2721     0.4316
 116     1.1059   884.5122     0.9156    -0.8893     0.1063     1.3903     0.3609     0.2718     0.2880     0.3154     0.3960
 117     1.1076   883.1332     0.8192    -0.3459    -0.2747     1.1666     0.3766     0.2874     0.3175     0.3038     0.4283
 118     1.1093   883.9639     1.0795    -1.1832     0.1796     1.6876     0.3450     0.2972     0.2884     0.2581     0.4141
 119     1.1109   883.8804     0.9987    -0.4655     0.2520     1.3124     0.3613     0.3016     0.2722     0.2781     0.4062
 120     1.1126   883.7779     1.3994    -0.8341    -0.0774     1.7691     0.4137     0.2944     0.3239     0.3050     0.4377
 121     1.1143   884.0512     0.3250    -0.3047     0.1716     0.8881     0.3459     0.2768     0.3078     0.2808     0.4139
 122     1.1160   883.9492     1.7610    -0.1854    -0.1813     1.9115     0.3567     0.2751     0.2884     0.2503     0.3986
 123     1.1176   883.4470     0.9296    -0.6522    -0.0434     1.4340     0.3090     0.2826     0.2982     0.2803     0.4109
 124     1.1193   883.1570     0.9564    -0.8420     0.3926     1.4207     0.3361     0.2680     0.2751     0.2716     0.3841
 125     1.1210   882.2474     1.7698    -1.2974    -0.3421     2.2818     0.3151     0.2979     0.2754     0.2884     0.4058
 126     1.1227   882.9933     0.8136    -0.9596    -0.3812     1.4716     0.3443     0.2997     0.2769     0.2750     0.4080
 127     1.1243   882.3290     1.6343    -1.0427     0.0837     2.0250     0.3507     0.3196     0.3045     0.3102     0.4414
 128     1.1260   882.7347     1.6465    -0.1700    -0.6175     1.8186     0.3419     0.2788     0.3242     0.3087     0.4276
 129     1.1277   880.4526     1.8678    -1.6141    -0.1407     2.7155     0.3594     0.3226     0.3288     0.3057     0.4606
 130     1.1293   882.4931     1.3855    -0.0430    -0.0530     1.5716     0.3560     0.3179     0.2975     0.2785     0.4354
 131     1.1310   882.2786     1.0579    -0.4863     0.1977     1.3396     0.3061     0.3060     0.2606     0.2725     0.4019
 132     1.1327   882.4247     0.6036    -0.3186     0.0891     1.0497     0.3417     0.2778     0.2530     0.2474     0.3758
 133     1.1344   883.1155     1.9399    -0.9384    -0.4438     2.2641     0.4028     0.2815     0.2696     0.2944     0.3898
 134     1.1360   879.6309     2.7888    -3.1774    -0.7394     4.1930     0.5772     0.4046     0.4336     0.3827     0.5930
 135     1.1377   879.6728     2.1865    -1.9955    -0.0024     3.0134     0.5287     0.3811     0.3640     0.3482     0.5270
 136     1.1394   882.1229     1.2739    -0.7972     0.0276     1.5972     0.3282     0.3115     0.2838     0.2495     0.4214
 137     1.1410   881.5848     1.5421    -0.7247     0.3115     1.8489     0.3308     0.3034     0.2985     0.3105     0.4256
 138     1.1427   882.3644     1.7785    -0.8473    -0.0955     2.0457     0.3602     0.3022     0.2825     0.3114     0.4137
 139     1.1444   883.5789     1.3645    -0.5755    -0.0280     1.7823     0.3728     0.3196     0.3273     0.3347     0.4575
 140     1.1461   882.3936     1.7665    -1.1809    -0.1366     2.2000     0.5003     0.3229     0.3571     0.3527     0.4814
 141     1.1477   881.1774     1.6140    -0.7186    -0.3601     1.9363     0.4576     0.4042     0.3566     0.3213     0.5390
 142     1.1494   881.3138     2.3009    -1.2307    -0.0080     2.6804     0.5007     0.3310     0.3615     0.3494     0.4901
 143     1.1511   881.4566     1.5077    -1.1749     0.0138     2.1656     0.3976     0.2982     0.3277     0.3416     0.4431
 144     1.1527   881.1878     1.9212    -0.6026    -0.3210     2.2153     0.3559     0.3090     0.3163     0.3016     0.4422
 145     1.1544   880.6266     2.1371    -1.0368    -0.0466     2.5154     0.3515     0.2983     0.2742     0.2954     0.4051
 146     1.1561   879.4568     2.2214    -1.4082     0.3806     2.6901     0.3132     0.2934     0.2783     0.2783     0.4044
 147     1.1578   879.9530     1.6998    -0.9021     0.2885     2.0107     0.3522     0.2891     0.2925     0.2737     0.4112
 148     1.1594   881.7018     1.3223    -0.4779     0.1198     1.5087     0.3822     0.3105     0.2853     0.3296     0.4216
 149     1.1611   880.3100     2.0845    -0.7375    -0.2295     2.3508     0.4045     0.2976     0.3579     0.3572     0.4655
 150     1.1628   880.5743     1.6237    -0.8248     0.0130     2.0066     0.4220     0.3014     0.3367     0.3105     0.4519
 151     1.1644   880.6883     1.7437    -0.8073    -0.3808     1.9985     0.4129     0.2925     0.3178     0.3015     0.4319
 152     1.1661   880.0778     2.0855    -0.1482     0.2572     2.2197     0.3499     0.2985     0.3195     0.2835     0.4372
 153     1.1678   884.1543     1.8856    -1.3329    -0.4150     2.3692     0.4369     0.3514     0.3698     0.4067     0.5101
 154     1.1695   887.7338     1.8371    -0.1579     1.2513     3.2823     1.2931     0.9818     1.2788     1.1435     1.6122
 155     1.1711   892.5355     6.7128   -18.0462     9.3986    26.0403     7.6153     6.0360     5.2482     4.1165     7.9985
