# Source: SwiftJ1727
# Position: RA=-98.069500 deg, Dec=-16.205326 deg
# MS: 1696597476_sdp_l0_1k_1024ch_SwiftJ1727.ms
# Scan: all
# Start MJD: 60223.5933974562
# End MJD: 60223.6036708876
# Middle MJD: 60223.5985341719
# Duration: 0.2466 hours
# Columns: Channel Freq[GHz] I[mJy] Q[mJy] U[mJy] V[mJy] Plin[mJy] rms_I rms_Q rms_U rms_V rms_Plin
#
   0     0.9020   225.8760    -0.1918    -2.2101    -0.5465     2.4655     0.6021     0.4600     0.5312     0.4816     0.7027
   1     0.9036   223.2132     0.3550    -3.0224    -0.0775     3.1594     0.4782     0.3399     0.3466     0.3571     0.4854
   2     0.9053   224.1133    -0.1697    -1.9193     0.1986     2.1550     0.4608     0.3367     0.3365     0.3008     0.4760
   3     0.9070   223.7516     0.1067    -2.1166    -0.4770     2.3034     0.4323     0.3591     0.3746     0.3334     0.5189
   4     0.9087   223.2626    -0.3105    -1.6601     0.1330     2.1825     0.3934     0.3817     0.3340     0.3605     0.5072
   5     0.9103   223.7438     0.1257    -1.9651    -0.1352     2.1795     0.4440     0.3727     0.3507     0.3692     0.5118
   6     0.9120   224.9030    -0.2580    -2.4675     0.3755     2.6205     0.3857     0.3511     0.3322     0.3272     0.4834
   7     0.9137   223.6790    -0.0885    -2.7696    -0.2083     2.8474     0.4376     0.4074     0.3764     0.3355     0.5547
   8     0.9153   224.0360    -0.0834    -2.1541     0.1694     2.1450     0.3840     0.2966     0.3249     0.3498     0.4400
   9     0.9170   223.0554     0.4040    -2.7027     0.2470     2.6142     0.3847     0.3478     0.3157     0.3539     0.4697
  10     0.9187   222.6506     0.0403    -3.0061    -0.0675     3.0820     0.4192     0.3506     0.3329     0.3243     0.4834
  11     0.9204   222.0258     0.0541    -2.2852     0.0873     2.4139     0.4142     0.3817     0.3557     0.3427     0.5217
  12     0.9220   222.0845     0.2437    -2.0779    -0.0075     2.2596     0.4163     0.3714     0.3211     0.3601     0.4909
  13     0.9237   222.0595     0.1667    -1.8710    -0.6169     2.0655     0.4077     0.3647     0.3554     0.3100     0.5092
  14     0.9254   221.7952     0.6478    -2.3800     0.2437     2.4233     0.3906     0.3567     0.3467     0.3607     0.4974
  15     0.9270   221.9382     0.9498    -2.4062    -0.4728     2.6948     0.4322     0.3561     0.3695     0.3189     0.5131
  16     0.9287   221.8846     0.3422    -1.5499     0.0669     1.7925     0.3963     0.3292     0.3415     0.3626     0.4744
  17     0.9304   222.0049     1.1353    -1.6940    -0.6436     2.1836     0.3866     0.3262     0.3483     0.3390     0.4772
  18     0.9321   222.9742     0.5560    -2.5355     0.0657     2.7100     0.3807     0.3845     0.3725     0.3767     0.5353
  19     0.9337   225.4483    -0.7138    -1.0404    -3.0508     2.6692     1.0919     1.0266     1.1108     1.2159     1.5126
  20     0.9354   225.5939     7.5214     1.9267    -3.6931    14.8667    10.7319     5.3685     3.4634     2.9997     6.3887
  21     0.9371   221.3808    19.2127     7.6127     4.5453    20.9167     4.0516     3.0652     0.6533     2.7567     3.1340
  22     0.9454   207.3935    26.6217    -0.9984    19.6777    32.5452     9.7805    14.9271     5.6527    12.2032    15.9615
  23     0.9471   229.4323    -5.4149    -1.1093     2.5669     8.1704     4.7235     3.3722     2.6137     5.3096     4.2665
  24     0.9488   222.3629    -0.3108    -1.7255     0.1541     1.9690     0.4329     0.4824     0.3797     0.3701     0.6139
  25     0.9504   218.9380     0.3208    -1.5489    -0.4870     1.8301     0.3775     0.3436     0.3156     0.3893     0.4665
  26     0.9521   219.5694     0.8596    -1.4393     0.5880     2.1285     0.4538     0.3305     0.3408     0.3345     0.4748
  27     0.9538   219.1865     0.8844    -2.2308     0.1641     2.5193     0.3484     0.3246     0.3523     0.3148     0.4791
  28     0.9555   219.3328     0.3004    -2.2958     0.1453     2.4034     0.3807     0.3030     0.3123     0.3446     0.4351
  29     0.9571   217.5969    -0.1158    -1.9758     0.5499     2.0700     0.3696     0.3530     0.3101     0.3669     0.4699
  30     0.9588   218.3866    -0.1619    -1.9644     0.7472     2.1296     0.3613     0.3388     0.3095     0.3062     0.4589
  31     0.9605   218.1114     0.9562    -1.4484     0.6650     2.0111     0.4121     0.3263     0.2923     0.3333     0.4381
  32     0.9622   218.0935     0.5804    -1.4082     0.0690     1.8132     0.3311     0.3466     0.3133     0.2983     0.4672
  33     0.9638   217.7546     0.3020    -1.2958    -0.6119     1.6748     0.3853     0.3852     0.2940     0.3287     0.4846
  34     0.9655   216.8829     0.3862    -1.1950    -0.0899     1.7832     0.3830     0.3262     0.3282     0.3101     0.4627
  35     0.9672   216.7441     0.6855    -1.2425    -0.2147     1.6432     0.3703     0.3315     0.3343     0.3477     0.4708
  36     0.9688   217.1599     0.7253    -1.4331    -0.3407     1.8786     0.3767     0.3342     0.3194     0.3003     0.4623
  37     0.9705   217.3164     0.5889    -1.3240    -0.3580     1.6341     0.3417     0.3240     0.3044     0.2997     0.4446
  38     0.9722   217.4504     0.6166    -0.7315    -0.6710     1.1882     0.3595     0.3168     0.3340     0.2858     0.4603
  39     0.9739   217.4196     0.0464    -1.3871    -0.3813     1.5815     0.3347     0.2751     0.3394     0.3297     0.4369
  40     0.9755   217.2805     0.5838    -1.0224    -0.3444     1.5485     0.3794     0.3017     0.3077     0.3424     0.4310
  41     0.9772   216.2749     1.3129    -1.5042    -0.3697     2.2243     0.3675     0.2998     0.3270     0.3752     0.4436
  42     0.9789   216.4881     0.5849    -1.6117     0.1413     1.9127     0.3601     0.3403     0.2991     0.3071     0.4530
  43     0.9805   216.5039     0.4051    -1.3959     0.4249     1.6206     0.3583     0.3259     0.2770     0.2815     0.4278
  44     0.9822   216.3717     0.9339    -0.9765    -0.0190     1.5799     0.3530     0.3212     0.3344     0.2979     0.4637
  45     0.9839   214.8051     0.6971    -1.2194    -0.3079     1.6795     0.3738     0.3421     0.3323     0.3174     0.4769
  46     0.9856   213.9611     0.8577    -2.0770     0.5266     2.4420     0.3610     0.3229     0.3032     0.3162     0.4430
  47     0.9872   214.6620     0.5886    -1.0382    -0.2269     1.6731     0.3836     0.3089     0.3030     0.2735     0.4327
  48     0.9889   213.8094     0.9600    -1.8937    -0.2766     2.3650     0.3614     0.3054     0.3644     0.3267     0.4755
  49     0.9906   214.3886     0.0028    -1.3778    -0.1613     1.8091     0.3166     0.3326     0.3162     0.2761     0.4590
  50     0.9922   214.1858     1.3722    -0.7034    -0.5544     2.0422     0.3309     0.3080     0.3098     0.3248     0.4368
  51     0.9939   213.9500     0.7781    -1.4584     0.2402     1.8720     0.3428     0.3211     0.3226     0.2854     0.4551
  52     0.9956   213.4909     0.4918    -1.2186     0.1274     1.7253     0.3395     0.3147     0.3206     0.3029     0.4493
  53     0.9973   213.7183     0.9906    -1.2805     0.0965     1.8325     0.3777     0.3160     0.3336     0.3031     0.4595
  54     0.9989   213.7074     0.5749    -1.4862    -0.1221     2.0848     0.3287     0.2998     0.3139     0.2954     0.4341
  55     1.0006   213.3714     1.2066    -1.4977     0.5947     2.1310     0.3271     0.2665     0.2733     0.3070     0.3818
  56     1.0023   212.9666     0.6614    -1.5898     0.2496     1.8419     0.3642     0.3202     0.3214     0.3285     0.4537
  57     1.0039   211.5356     0.5725    -1.0949    -0.2240     1.4522     0.3247     0.3154     0.2799     0.3458     0.4217
  58     1.0056   211.0823     0.9570    -1.5955    -0.0102     2.0936     0.3169     0.2964     0.2840     0.2987     0.4105
  59     1.0073   211.1796     0.8496    -2.2019    -0.3601     2.6667     0.3426     0.2657     0.2897     0.2633     0.3931
  60     1.0090   211.6258     0.8861    -1.4970    -0.4741     2.0302     0.3989     0.3016     0.2792     0.2862     0.4110
  61     1.0106   212.6732     1.5147    -1.6881    -0.2011     2.4780     0.3375     0.2907     0.3240     0.2707     0.4353
  62     1.0123   212.3728     0.5140    -2.0548    -0.2210     2.2211     0.3271     0.3055     0.2883     0.3108     0.4201
  63     1.0140   213.0067     0.5393    -0.8567    -0.1546     1.2497     0.3591     0.2881     0.3051     0.2689     0.4197
  64     1.0157   212.5524     0.8031    -1.2835    -0.3971     1.6297     0.3099     0.3117     0.3037     0.2908     0.4351
  65     1.0173   212.5155     0.7350    -1.1214    -0.1773     1.4741     0.3426     0.2991     0.3466     0.2967     0.4578
  66     1.0190   212.1237     0.5037    -1.4751    -0.1211     1.6732     0.3239     0.2837     0.3056     0.2795     0.4170
  67     1.0207   211.7566     1.1532    -1.1889    -0.5463     1.7679     0.3166     0.3108     0.2855     0.2929     0.4220
  68     1.0223   211.8914     0.7514    -1.4510    -0.0310     2.0574     0.3598     0.3072     0.3006     0.2972     0.4298
  69     1.0240   213.3867     1.1194    -1.5020    -0.1693     2.0206     0.3512     0.3133     0.3195     0.3047     0.4475
  70     1.0257   212.4497     0.6697    -1.7456     0.0685     2.0098     0.3828     0.3526     0.3048     0.3182     0.4661
  71     1.0274   211.0694     1.0367    -1.9152    -0.3695     2.3026     0.3927     0.3437     0.3303     0.3312     0.4767
  72     1.0290   208.8597     1.6114    -2.6227     0.3376     3.1839     0.5404     0.4273     0.4114     0.4308     0.5932
  73     1.0307   208.8172    -0.0456    -2.3729    -1.4511     2.7174     0.6079     0.5411     0.4731     0.5155     0.7187
  74     1.0324   212.0113    -0.1612    -1.4523     0.6870     1.6178     0.4019     0.3233     0.3573     0.3493     0.4819
  75     1.0340   212.4151     0.8503    -2.0207    -0.7531     2.3606     0.3363     0.3210     0.3166     0.2855     0.4508
  76     1.0357   211.3322     0.9555    -1.4306    -0.3119     1.9295     0.3209     0.2875     0.3222     0.3233     0.4318
  77     1.0374   212.2783     0.8487    -1.4229     0.3181     1.7494     0.3494     0.2982     0.2945     0.2791     0.4191
  78     1.0391   212.3475     1.1555    -2.0174     0.0686     2.4386     0.3222     0.3276     0.2976     0.3019     0.4426
  79     1.0407   207.2106    -0.0181    -2.5006    -0.0359     2.5610     0.4359     0.3824     0.4049     0.3434     0.5570
  80     1.0424   210.8435     0.8798    -2.1736    -0.1822     2.4220     0.3353     0.3033     0.3335     0.3385     0.4508
  81     1.0441   208.7274     0.4838    -1.6457    -0.3687     1.9206     0.3427     0.3195     0.3117     0.2979     0.4464
  82     1.0457   208.5258     1.5424    -2.3654    -0.0958     2.8847     0.3185     0.3194     0.3313     0.2572     0.4602
  83     1.0474   208.0775     1.2290    -2.1575    -0.5615     2.6103     0.2930     0.2945     0.3272     0.3019     0.4402
  84     1.0491   208.1632     1.1861    -1.6980     0.6112     2.2968     0.3299     0.3090     0.2846     0.3112     0.4201
  85     1.0508   209.6359     0.6651    -2.5022    -0.4189     2.7461     0.3479     0.3204     0.3011     0.3405     0.4397
  86     1.0524   205.5964     0.8370    -3.2394     0.4578     3.5291     0.4245     0.3583     0.4162     0.4006     0.5492
  87     1.0541   209.8721     0.5843    -2.1393    -0.0640     2.2804     0.3181     0.3112     0.3209     0.3024     0.4470
  88     1.0558   209.4919     1.3737    -1.7830    -0.1660     2.7364     0.3262     0.3049     0.2991     0.2951     0.4271
  89     1.0574   208.2088     0.2906    -2.0962    -0.3059     2.0024     0.3126     0.3126     0.2889     0.2999     0.4257
  90     1.0591   207.9200     0.8516    -2.4205    -0.5062     2.6166     0.3347     0.2895     0.3249     0.2754     0.4352
  91     1.0608   208.0920     0.4346    -1.6586    -0.3024     1.8793     0.3554     0.3012     0.2921     0.2679     0.4195
  92     1.0625   208.2284     0.5728    -1.6380    -0.0635     1.9314     0.3226     0.2929     0.3050     0.3132     0.4229
  93     1.0641   203.4034     0.9573    -3.5769     0.4751     3.8501     0.4312     0.3773     0.4063     0.3686     0.5545
  94     1.0658   208.2222     0.7620    -2.5796    -0.4397     2.8685     0.3239     0.2899     0.3063     0.3016     0.4218
  95     1.0675   208.4624     0.7310    -2.7929     0.3203     2.9433     0.3038     0.3049     0.3066     0.2905     0.4324
  96     1.0692   207.8319     0.3899    -2.6957    -0.5958     2.8887     0.3331     0.3264     0.3230     0.2587     0.4592
  97     1.0708   207.0624     0.3680    -2.0500    -0.0612     2.2264     0.3274     0.3131     0.3259     0.2914     0.4519
  98     1.0725   207.3714     0.2497    -2.1595     0.5504     2.2983     0.3283     0.3011     0.3150     0.2784     0.4358
  99     1.0742   207.7450     1.0260    -2.2728    -0.0281     2.6443     0.3302     0.2967     0.3019     0.2811     0.4233
 100     1.0758   207.0197     0.7490    -2.2059     0.1333     2.4173     0.3013     0.2839     0.3140     0.3054     0.4233
 101     1.0775   208.3101     0.9751    -1.6474     0.0827     2.1287     0.3039     0.2866     0.3027     0.2818     0.4169
 102     1.0792   208.1210     0.5675    -2.2962    -0.2210     2.5184     0.3133     0.2801     0.3001     0.3066     0.4105
 103     1.0809   207.4262     0.7886    -1.3138     0.4133     1.8599     0.3277     0.2705     0.2773     0.3394     0.3874
 104     1.0825   206.0990     0.8148    -2.5829    -0.3094     2.7710     0.3386     0.3077     0.3063     0.3027     0.4342
 105     1.0842   206.2377     0.8729    -2.2490     0.5127     2.6024     0.3316     0.3036     0.3315     0.3177     0.4495
 106     1.0859   205.0571     0.6103    -3.1165     0.7430     3.3041     0.4496     0.4016     0.3955     0.4072     0.5636
 107     1.0875   199.6038     2.6778     0.9013    -8.5333    15.9971     6.6557     3.1859     7.1183     7.4176     7.7987
 108     1.0926   206.7619    -0.4791    -1.9634    -1.4300     2.8703     1.5717     1.2343     1.2514     1.4711     1.7577
 109     1.0942   206.6784     0.4534    -2.1659     0.0172     2.2559     0.3805     0.3602     0.3049     0.3085     0.4719
 110     1.0959   207.6573     0.6880    -1.6682    -0.1383     2.1482     0.3318     0.3171     0.3196     0.3053     0.4503
 111     1.0976   206.1881     1.3540    -1.5083    -0.4451     2.2372     0.3083     0.2840     0.3003     0.2747     0.4133
 112     1.0992   205.3230     0.6143    -1.4260     0.3022     1.7271     0.3262     0.3024     0.2563     0.3097     0.3964
 113     1.1009   205.0358     1.3107    -1.3774    -0.4109     2.1063     0.4222     0.3696     0.4438     0.3806     0.5776
 114     1.1026   197.8649     0.4603    -4.4326     1.2635     5.0133     1.3269     1.3879     1.2730     1.1212     1.8833
 115     1.1043   206.5610     2.4573    -1.5609     0.8965     3.2179     0.8690     0.7004     0.7326     0.6097     1.0136
 116     1.1059   206.2024     1.7907    -1.5146    -0.0366     2.4846     0.3236     0.3262     0.3139     0.3036     0.4527
 117     1.1076   203.8799     0.4459    -2.8447     0.0484     3.0316     0.3867     0.3049     0.3117     0.3101     0.4360
 118     1.1093   206.5247     1.0524    -1.5098    -0.2243     2.0469     0.3118     0.3033     0.2771     0.3122     0.4108
 119     1.1109   205.2437     1.0159    -1.4381     0.1226     1.9254     0.3798     0.3438     0.3280     0.3196     0.4752
 120     1.1126   202.0196     0.1053    -1.9895     0.0459     2.1814     0.4492     0.4099     0.4192     0.3906     0.5863
 121     1.1143   207.0157     0.1844    -1.2026    -0.1217     1.4924     0.3099     0.3340     0.2817     0.2626     0.4370
 122     1.1160   206.5534     1.2152    -1.5854    -0.0874     2.1179     0.3235     0.3053     0.2884     0.2729     0.4200
 123     1.1176   205.3933     0.8698    -1.4818    -0.2644     1.8263     0.3043     0.2805     0.2990     0.2712     0.4100
 124     1.1193   205.9790     0.6405    -1.3000    -0.6834     1.5955     0.3157     0.2595     0.2756     0.2868     0.3786
 125     1.1210   205.5770     0.6438    -1.1583     0.1242     1.5135     0.2825     0.2681     0.2834     0.2892     0.3901
 126     1.1227   202.2523     0.0508    -1.4693     0.1940     1.7666     0.3812     0.3617     0.3291     0.3022     0.4890
 127     1.1243   203.3920     1.3415    -1.0776     0.0950     1.8169     0.3498     0.3304     0.3088     0.3339     0.4522
 128     1.1260   204.6838     1.1604    -1.5870    -0.3247     2.1467     0.3323     0.3612     0.3248     0.3007     0.4858
 129     1.1277   199.4020     0.4081    -2.4909     0.5215     2.8151     0.4798     0.3876     0.4165     0.4421     0.5689
 130     1.1293   204.7586    -0.1717    -0.8261    -0.7363     1.1792     0.3597     0.3068     0.2856     0.2893     0.4192
 131     1.1310   204.1492     0.0187    -1.2090    -0.4268     1.3771     0.3030     0.2831     0.2680     0.3022     0.3898
 132     1.1327   204.2401     0.6011    -1.1862    -0.4939     1.6965     0.2829     0.2646     0.2772     0.3206     0.3832
 133     1.1344   204.1363     0.2208    -1.2136     0.2062     1.4283     0.3423     0.2797     0.2703     0.2731     0.3890
 134     1.1360   192.9200     0.6201    -4.6934     2.1488     4.8209     0.6228     0.4702     0.4951     0.4426     0.6828
 135     1.1377   199.2468    -0.8466    -2.8291     0.4300     3.0696     0.4898     0.4147     0.4218     0.3763     0.5916
 136     1.1394   205.2782     0.5917    -1.4924    -0.0622     1.8362     0.3215     0.3448     0.2876     0.2765     0.4490
 137     1.1410   201.1584     0.6366    -2.0557    -0.0390     2.3954     0.3350     0.3347     0.3622     0.3315     0.4932
 138     1.1427   204.8926     0.1014    -1.8434    -0.0348     1.9424     0.3216     0.2668     0.2787     0.3215     0.3858
 139     1.1444   206.2020     0.6366    -0.6978     0.9265     1.2800     0.3547     0.2973     0.3058     0.2971     0.4265
 140     1.1461   203.5540     0.3631    -0.5341    -0.2137     0.9994     0.4044     0.3334     0.3395     0.3677     0.4759
 141     1.1477   199.2955     1.4127    -0.5245    -1.5355     1.6247     0.4903     0.3641     0.3549     0.3781     0.5085
 142     1.1494   195.4932     0.4579    -1.7228    -0.8403     2.1440     0.5308     0.3875     0.4635     0.4189     0.6041
 143     1.1511   197.7193     1.1944    -1.2350    -0.9112     1.9004     0.4340     0.3513     0.3394     0.3558     0.4884
 144     1.1527   202.5143     0.4230    -1.0285     0.0623     1.4295     0.3166     0.3059     0.2849     0.3099     0.4180
 145     1.1544   203.5769     0.2914    -1.4459     0.4088     1.5514     0.2766     0.3049     0.2933     0.2894     0.4231
 146     1.1561   202.9415     0.6088    -1.4613     0.8645     1.7360     0.2995     0.2794     0.2953     0.2813     0.4066
 147     1.1578   204.6700     0.4479    -1.2689     0.4928     1.4780     0.3122     0.2763     0.2729     0.2597     0.3884
 148     1.1594   203.3908     0.6945    -1.2884    -0.0055     1.6390     0.3425     0.2925     0.2710     0.2886     0.3987
 149     1.1611   199.2021     0.9564    -1.5975    -1.0882     1.9422     0.3763     0.3011     0.3203     0.3275     0.4396
 150     1.1628   200.7772     0.9667    -1.6112    -0.4737     2.0006     0.3463     0.3046     0.3007     0.3082     0.4281
 151     1.1644   201.7353     0.2722    -0.9883     0.0711     1.3534     0.3356     0.3148     0.2876     0.2909     0.4264
 152     1.1661   201.9711     0.5698    -0.9938    -0.3593     1.2683     0.3275     0.2997     0.2810     0.2606     0.4108
 153     1.1678   201.9494     0.7414    -0.9096     0.6338     1.6745     0.3768     0.3021     0.3324     0.3570     0.4492
 154     1.1695   200.1454     0.9023    -1.5096     0.9030     1.9359     0.7296     0.6445     0.6857     0.7127     0.9411
