# Source: SwiftJ1727
# Position: RA=-98.069509 deg, Dec=-16.205307 deg
# MS: 1693837274_sdp_l0_1024ch_SwiftJ1727.ms
# Scan: all
# Start MJD: 60191.6585988807
# End MJD: 60191.6688723122
# Middle MJD: 60191.6637355964
# Duration: 0.2466 hours
# Columns: Channel Freq[GHz] I[mJy] Q[mJy] U[mJy] V[mJy] Plin[mJy] rms_I rms_Q rms_U rms_V rms_Plin
#
   0     0.8995    98.1788     0.4993    -0.0236    -0.2994     1.3072     0.4847     0.4589     0.5612     0.4406     0.7250
   1     0.9061    98.0693     0.3652     0.0340    -0.1078     0.5460     0.2044     0.1865     0.1738     0.1779     0.2549
   2     0.9128    98.4395     0.2074     0.4832     0.0011     0.6906     0.1829     0.1746     0.1688     0.1490     0.2428
   3     0.9195    97.7169    -0.0468     0.1936    -0.1530     0.3340     0.2005     0.1616     0.1700     0.1657     0.2346
   4     0.9262    98.4104     0.0758     0.1867     0.2079     0.4990     0.1974     0.1804     0.1870     0.1691     0.2598
   5     0.9329    98.5859     0.0635    -0.4212    -0.1394     0.6420     0.2830     0.2457     0.2218     0.2484     0.3310
   6     0.9463    98.7383     1.7772    -1.0575    -0.3982     2.5533     1.0201     0.9991     1.1368     1.0174     1.5134
   7     0.9530    97.9215     0.2672     0.1912     0.3131     0.5251     0.2524     0.1765     0.1913     0.1957     0.2603
   8     0.9596    98.2829     0.3002     0.0992     0.0221     0.4574     0.2428     0.2098     0.2314     0.1936     0.3123
   9     0.9663    97.9892     0.2465    -0.0029    -0.0674     0.4371     0.1862     0.1510     0.1501     0.1576     0.2129
  10     0.9730    97.8548     0.4347    -0.0047     0.1619     0.5839     0.2009     0.1523     0.1629     0.1643     0.2230
  11     0.9797    97.6266     0.2648     0.1401    -0.2344     0.3974     0.1881     0.1555     0.1677     0.1670     0.2288
  12     0.9864    97.5401     0.4209     0.2212    -0.0248     0.6479     0.2009     0.1582     0.1685     0.1467     0.2311
  13     0.9931    98.0334     0.3068     0.1229    -0.0217     0.4934     0.1789     0.1659     0.1524     0.1514     0.2252
  14     0.9998    97.4126     0.3468     0.0419    -0.0073     0.5187     0.1770     0.1528     0.1560     0.1547     0.2184
  15     1.0065    97.3867     0.2103    -0.3390     0.1657     0.5175     0.1844     0.1635     0.1589     0.1643     0.2280
  16     1.0131    97.5153     0.1378     0.0740    -0.2987     0.5030     0.1867     0.1732     0.1516     0.1545     0.2302
  17     1.0198    97.7459    -0.0225     0.1189    -0.0717     0.3974     0.1702     0.1683     0.1657     0.1530     0.2362
  18     1.0265    97.0595     0.5785     0.1388    -0.0818     0.7342     0.2010     0.1709     0.1853     0.1736     0.2521
  19     1.0332    96.6818     0.3233     0.2070     0.2147     0.4880     0.2176     0.2190     0.1823     0.1909     0.2850
  20     1.0399    96.7090     0.3382     0.1363    -0.0784     0.4710     0.1954     0.1413     0.1483     0.1478     0.2048
  21     1.0466    97.0009     0.1465     0.0954    -0.2782     0.3297     0.1708     0.1412     0.1852     0.1601     0.2329
  22     1.0533    96.8807     0.1724     0.1636     0.0480     0.4065     0.1816     0.1465     0.1631     0.1368     0.2192
  23     1.0600    96.8390     0.1444     0.4146    -0.2152     0.6341     0.1764     0.1570     0.1594     0.1510     0.2237
  24     1.0666    95.6991     0.3622    -0.0432     0.0659     0.5166     0.2184     0.1745     0.1736     0.1580     0.2462
  25     1.0733    96.6976     0.1508     0.3300    -0.1535     0.4554     0.1736     0.1436     0.1450     0.1581     0.2040
  26     1.0800    96.1369     0.2901     0.0899    -0.2724     0.5111     0.1912     0.1582     0.1486     0.1373     0.2170
  27     1.0867    94.5110     0.5076    -0.8087     0.4016     1.1164     0.2470     0.2534     0.2660     0.2488     0.3673
  28     1.0934    95.5089     1.0062    -0.4790    -0.0196     1.2259     0.2512     0.2237     0.2313     0.2016     0.3218
  29     1.1001    96.2278     0.5241    -0.1110    -0.1497     0.6602     0.1945     0.1710     0.1600     0.1913     0.2342
  30     1.1068    96.4532    -0.0100    -0.0942    -0.3360     0.4490     0.2072     0.1655     0.1891     0.1810     0.2513
  31     1.1135    96.1093     0.2919     0.4905    -0.0725     0.7406     0.1807     0.1501     0.1411     0.1390     0.2060
  32     1.1201    96.0822     0.1907    -0.1316    -0.2143     0.3561     0.1678     0.1361     0.1442     0.1410     0.1983
  33     1.1268    95.4165     0.5371    -0.2922    -0.0601     0.7752     0.1862     0.1630     0.1613     0.1368     0.2293
  34     1.1335    94.5559     0.8077    -0.7423     0.2988     1.1478     0.1967     0.1671     0.1812     0.1578     0.2464
  35     1.1402    95.0535     0.3183    -0.2008    -0.1354     0.4622     0.1829     0.1583     0.1445     0.1591     0.2143
  36     1.1469    93.0046     0.7518    -0.4596    -0.3210     0.9667     0.2304     0.1913     0.1676     0.1905     0.2543
  37     1.1536    95.4465     0.5257     0.0444     0.0473     0.5810     0.1750     0.1419     0.1517     0.1546     0.2077
  38     1.1603    94.3479     0.6213    -0.1506    -0.2795     0.7749     0.1900     0.1524     0.1471     0.1674     0.2118
  39     1.1670    95.4224     0.2325    -0.0593    -0.4026     0.4508     0.2192     0.1872     0.1899     0.1796     0.2666
  40     1.1736   162.5744    -4.9799     4.8436     0.4381     9.4130    18.7375     4.4087     3.3013     9.1912     5.5077
  41     1.1803   139.1559     0.9068    -1.5993     4.1756     4.0072     4.9963     2.3526     1.4310     2.2817     2.7536
  42     1.1870    94.5292     0.4489     0.0538    -0.5622     0.6330     0.2110     0.1624     0.1940     0.1799     0.2530
  43     1.1937    94.5320     0.5168     0.0904    -0.0223     0.6806     0.1822     0.1513     0.1755     0.1829     0.2317
  44     1.2004    93.7847     0.2871     0.9520    -0.0241     1.1796     0.2484     0.2101     0.1947     0.2099     0.2864
  45     1.2071    82.8979     0.2597     1.8423    -0.2517     2.3464     0.8050     0.4916     0.5369     0.5267     0.7280
  46     1.2138    91.7270     0.9746     0.5362    -0.7773     1.1612     0.2678     0.2164     0.2138     0.2208     0.3042
  47     1.2205    94.5037     0.0346     0.1257    -0.6295     0.3566     0.1905     0.1586     0.1749     0.1801     0.2361
  48     1.2271    90.7042     1.0470    -0.0196    -2.8095     1.2173     0.3330     0.2457     0.2367     0.2604     0.3411
  49     1.2338    93.4394     0.4172     0.2911    -0.5967     0.6152     0.2216     0.1828     0.1672     0.1961     0.2477
  50     1.2405    93.6096     0.4037     0.5964    -1.5257     0.7655     0.2190     0.1496     0.1450     0.1721     0.2083
  51     1.2472    94.1848     0.3375     0.4053    -0.4205     0.6161     0.1900     0.1381     0.1496     0.1581     0.2036
  52     1.2539    94.5664     0.4799     0.3019     0.2465     0.6157     0.1781     0.1507     0.1598     0.1476     0.2196
  53     1.2606    93.6713     0.7063     0.4604     0.1484     0.9708     0.1817     0.1771     0.1878     0.1983     0.2581
  54     1.2673   107.9653    -1.5683    -0.9689     0.6733     2.5396     1.1902     1.0347     0.8643     0.9980     1.3482
  55     1.2740    86.2109     0.6588     2.1998     0.1797     2.5603     0.5785     0.3640     0.4236     0.4240     0.5585
  56     1.2806    86.7245     0.2277     0.9686     0.4428     1.2030     0.3824     0.2806     0.3028     0.2805     0.4128
  57     1.2873    95.6779     0.3892     0.6329     0.6458     0.9239     0.4094     0.3565     0.3769     0.3476     0.5188
  58     1.2940    95.4307     0.0955     0.5388    -0.1053     0.7372     0.2228     0.1977     0.1921     0.2220     0.2757
  59     1.3007    95.4935     0.3640     0.1804    -0.1343     0.5447     0.1442     0.1276     0.1358     0.1452     0.1864
  60     1.3074    95.7291     0.4037     0.2883    -0.0447     0.6407     0.1533     0.1443     0.1141     0.1262     0.1839
  61     1.3141    95.6787     0.2459    -0.0206     0.1351     0.3902     0.1404     0.1200     0.1322     0.1295     0.1785
  62     1.3208    95.2810     0.0410     0.0401    -0.3623     0.2597     0.1589     0.1315     0.1347     0.1224     0.1883
  63     1.3275    95.6182     0.2646    -0.0066    -0.2907     0.3856     0.1420     0.1306     0.1363     0.1244     0.1888
  64     1.3341    95.6252     0.1929     0.2792     0.0541     0.4038     0.1489     0.1275     0.1228     0.1187     0.1770
  65     1.3408    95.5312     0.4626     0.1931    -0.0502     0.5505     0.1435     0.1267     0.1331     0.1335     0.1838
  66     1.3475    95.6227     0.2278     0.1065    -0.1380     0.3961     0.1553     0.1211     0.1245     0.1159     0.1737
  67     1.3542    95.3807     0.2824     0.0118     0.0477     0.3647     0.1465     0.1180     0.1335     0.1211     0.1782
  68     1.3609    95.5091     0.2326     0.3269    -0.1784     0.4790     0.1402     0.1224     0.1249     0.1197     0.1749
  69     1.3676    95.5266     0.3604     0.2625    -0.0290     0.5596     0.1380     0.1139     0.1276     0.1258     0.1710
  70     1.3743    95.3780     0.2543     0.2644    -0.0260     0.4593     0.1367     0.1215     0.1234     0.1163     0.1732
  71     1.3810    95.5398     0.0081    -0.0103     0.0757     0.2710     0.1526     0.1248     0.1301     0.1223     0.1803
  72     1.3876    95.5934     0.0269     0.1709     0.0653     0.3867     0.1496     0.1308     0.1345     0.1245     0.1876
  73     1.3943    95.6472     0.4919     0.1281    -0.2289     0.5559     0.1558     0.1198     0.1296     0.1168     0.1765
  74     1.4010    95.5247     0.3182     0.2344    -0.1102     0.5133     0.1363     0.1239     0.1323     0.1270     0.1813
  75     1.4077    95.6616     0.4037     0.2297    -0.2981     0.5724     0.1330     0.1197     0.1258     0.1195     0.1737
  76     1.4144    95.6241     0.2347     0.3168    -0.0186     0.4929     0.1366     0.1214     0.1129     0.1275     0.1658
  77     1.4211    96.7126     0.0239     0.3344    -0.2562     0.5179     0.2721     0.2400     0.2297     0.2312     0.3322
  78     1.4278    95.6013     0.1978     0.2351     0.0324     0.4200     0.1428     0.1301     0.1235     0.1249     0.1794
  79     1.4345    95.5141     0.0562     0.1690    -0.1255     0.3232     0.1562     0.1231     0.1293     0.1208     0.1786
  80     1.4411    95.7473     0.2719     0.1552    -0.0621     0.4316     0.1367     0.1226     0.1184     0.1269     0.1704
  81     1.4478    95.9357     0.4450     0.1992    -0.0857     0.5682     0.1425     0.1274     0.1237     0.1193     0.1776
  82     1.4545    95.6752     0.3148     0.2142    -0.0679     0.4484     0.1346     0.1216     0.1235     0.1195     0.1733
  83     1.4612    95.6300     0.2856     0.3006    -0.1740     0.4940     0.1360     0.1217     0.1303     0.1198     0.1783
  84     1.4679    95.8497     0.3287     0.0251     0.1551     0.3868     0.1469     0.1244     0.1248     0.1209     0.1762
  85     1.4746    95.7095     0.0744     0.3523     0.1930     0.5386     0.1413     0.1131     0.1301     0.1218     0.1724
  86     1.4813    95.5223     0.0578     0.1438    -0.0211     0.2962     0.1425     0.1236     0.1229     0.1238     0.1743
  87     1.4880    95.5357     0.3073     0.0858    -0.1125     0.3903     0.1442     0.1257     0.1317     0.1262     0.1821
  88     1.4946    95.4301     0.4086     0.1628    -0.1596     0.5145     0.1356     0.1161     0.1279     0.1250     0.1727
  89     1.5013    95.9200     0.3232     0.0441     0.1428     0.4402     0.1590     0.1263     0.1293     0.1384     0.1808
  90     1.5080    95.9139     0.3150     0.1783    -0.1718     0.4648     0.1351     0.1229     0.1165     0.1238     0.1693
  91     1.5147    96.0763     0.1649     0.1220     0.0204     0.3223     0.1323     0.1051     0.1259     0.1182     0.1640
  92     1.5214    97.9328     0.0602     0.4393    -0.7074     0.9351     0.3272     0.3559     0.3109     0.3428     0.4726
  93     1.5281    97.0016    -0.0650     0.1926     0.0454     0.4813     0.3766     0.3703     0.3389     0.3637     0.5020
  94     1.5348    95.9589     0.4661    -0.0044    -0.3694     0.6825     0.3046     0.2706     0.2678     0.3011     0.3807
  95     1.5415    97.4068     0.0101     1.2681     1.7963     1.6358     0.6418     0.4249     0.4308     0.5188     0.6051
  96     1.5481    92.9700     0.2220     0.8760    -1.2026     1.0106     0.3187     0.2593     0.2462     0.2162     0.3576
  97     1.5548    95.8515     0.3655     0.4664    -0.2842     0.6804     0.1994     0.1673     0.1718     0.1735     0.2398
  98     1.5615    98.2819     0.2442    -0.2509     0.2100     0.7412     0.3705     0.3169     0.3231     0.3484     0.4526
  99     1.5682    94.8542     0.2307     0.1527    -0.1007     0.3750     0.1920     0.1653     0.1740     0.1615     0.2400
 100     1.5749   105.0724     1.2767     1.2671     1.2044     1.9974     0.6933     0.5512     0.5338     0.5704     0.7673
 101     1.5816    94.0679    -0.0081    -0.0976    -0.3259     0.4818     0.1988     0.1685     0.1578     0.1733     0.2308
 102     1.5883    95.4999     0.0387     0.2940    -0.1852     0.4995     0.2362     0.2137     0.2140     0.2165     0.3025
 103     1.5950    96.0831    -0.2548     0.2868    -0.0720     0.4983     0.1747     0.1652     0.1606     0.1601     0.2304
 104     1.6016    94.4307     0.4725    -0.0693    -0.0023     0.6450     0.1663     0.1425     0.1374     0.1462     0.1979
 105     1.6083    95.9752     0.1641    -0.0512    -0.1424     0.2964     0.1397     0.1249     0.1217     0.1217     0.1744
 106     1.6150    96.4700     0.0531     0.3877    -0.0356     0.5083     0.1371     0.1273     0.1210     0.1311     0.1757
 107     1.6217    92.0188     0.5790     1.5951    -1.5978     1.8600     0.3905     0.3146     0.3160     0.3343     0.4459
 108     1.6284    96.8018     0.1392     0.2278    -0.0513     0.5295     0.1891     0.1797     0.1812     0.1889     0.2552
 109     1.6351    96.4648     0.2114    -0.0233     0.0179     0.3473     0.1424     0.1257     0.1246     0.1274     0.1769
 110     1.6418    96.2025     0.1641    -0.2126    -0.1973     0.3508     0.1349     0.1252     0.1202     0.1230     0.1736
 111     1.6485    96.4866     0.5126     0.6598    -0.1343     0.9515     0.1893     0.1743     0.1756     0.1706     0.2474
