# Source: SwiftJ1727
# Position: RA=-98.069512 deg, Dec=-16.205368 deg
# MS: 1697470274_sdp_l0_1k_1024ch_SwiftJ1727.ms
# Scan: all
# Start MJD: 60233.6599973822
# End MJD: 60233.6702708136
# Middle MJD: 60233.6651340979
# Duration: 0.2466 hours
# Columns: Channel Freq[GHz] I[mJy] Q[mJy] U[mJy] V[mJy] Plin[mJy] rms_I rms_Q rms_U rms_V rms_Plin
#
   0     0.9019   125.7945     3.5187    -1.4793     0.4510     3.8332     0.5935     0.5238     0.5413     0.5148     0.7532
   1     0.9035   124.2957     3.3128    -1.1414    -0.9869     3.6438     0.5139     0.3163     0.3402     0.3822     0.4645
   2     0.9052   124.8828     3.3299    -0.7043    -0.3400     3.4305     0.4579     0.3432     0.4311     0.3399     0.5511
   3     0.9069   124.7992     3.5808    -1.2053    -0.2333     3.8310     0.4399     0.3155     0.3788     0.3951     0.4930
   4     0.9086   124.5579     3.1498    -1.2083    -1.4743     3.4662     0.4286     0.3354     0.3765     0.3949     0.5042
   5     0.9102   122.8905     3.0172    -1.2166    -0.0272     3.3942     0.4301     0.3901     0.3470     0.3345     0.5221
   6     0.9119   124.2795     2.9659    -1.2574    -0.1369     3.3306     0.4133     0.3354     0.2973     0.3742     0.4481
   7     0.9136   123.1978     3.2420    -0.8949    -0.0948     3.4702     0.4607     0.3079     0.3888     0.3658     0.4960
   8     0.9152   123.4462     3.3881    -1.0921    -0.4251     3.6322     0.4342     0.3549     0.3580     0.3204     0.5041
   9     0.9169   123.9570     3.1798    -1.1174    -0.3938     3.5194     0.3981     0.3274     0.3382     0.3097     0.4707
  10     0.9186   124.4916     2.6237    -0.9412    -0.1474     3.0752     0.3922     0.3189     0.3190     0.2940     0.4511
  11     0.9203   123.7483     3.3676    -0.8415    -0.4842     3.5910     0.4514     0.3216     0.3268     0.3746     0.4585
  12     0.9219   122.7673     3.1978    -1.0849    -0.3379     3.5078     0.4560     0.3253     0.3417     0.3394     0.4718
  13     0.9236   121.9394     2.7909    -0.5325    -0.6144     2.9557     0.4318     0.3102     0.3210     0.3560     0.4464
  14     0.9253   122.5412     2.9260    -0.3674    -0.2704     3.0534     0.4256     0.3564     0.3143     0.3488     0.4751
  15     0.9270   122.5855     3.4267    -0.4397    -0.7507     3.6291     0.4366     0.3438     0.3141     0.3320     0.4657
  16     0.9286   123.4433     3.2049    -0.4724    -0.0056     3.3147     0.4221     0.3224     0.3107     0.2912     0.4477
  17     0.9303   122.2631     2.8926     0.0188    -0.5229     3.0373     0.3937     0.3363     0.3088     0.2987     0.4565
  18     0.9320   122.0681     2.9804    -0.8695     0.2714     3.1950     0.3969     0.3493     0.3213     0.3407     0.4746
  19     0.9336   122.9383     2.3124    -0.3948     0.9855     3.1655     0.9013     1.0200     0.9419     0.8756     1.3884
  20     0.9487   121.5142     2.9868    -1.1663     0.9835     5.5116     1.3457     1.5729     1.4631     1.5519     2.1481
  21     0.9504   121.3947     2.8708    -1.1788    -0.1618     3.1918     0.4305     0.3692     0.3728     0.4111     0.5247
  22     0.9520   121.5711     2.8434    -1.4273     0.1081     3.2253     0.3699     0.3442     0.3140     0.3144     0.4659
  23     0.9537   121.4177     2.5447    -0.7828    -0.4024     2.7923     0.4145     0.3572     0.3463     0.3667     0.4976
  24     0.9554   121.9557     2.2668    -0.1146     0.5990     2.7633     0.6396     0.6210     0.6097     0.7125     0.8703
  25     0.9570   122.9167     1.7169    -0.9300    -0.1306     2.9266     0.7399     0.5929     0.8290     0.6126     1.0192
  26     0.9587   122.7678     3.2415    -0.1378    -0.8846     3.3552     0.7256     0.6730     0.5844     0.6010     0.8913
  27     0.9604   123.6451     3.2411    -1.0154    -0.2793     3.5568     0.6693     0.5952     0.5324     0.5207     0.7985
  28     0.9621   122.4720     2.5967    -0.2337    -0.4289     2.7785     0.4246     0.3240     0.3303     0.3132     0.4627
  29     0.9637   120.8220     3.0712    -0.1595    -0.1213     3.2060     0.3820     0.3364     0.3396     0.3158     0.4780
  30     0.9654   120.6245     3.0790    -0.5096    -0.2333     3.1581     0.3850     0.3284     0.2911     0.2869     0.4388
  31     0.9671   119.9927     2.8346    -0.4225    -0.4606     2.9916     0.3861     0.3433     0.3230     0.3173     0.4713
  32     0.9687   120.0365     2.8689     0.0181    -0.6410     2.9295     0.3355     0.3093     0.3151     0.3317     0.4415
  33     0.9704   119.0418     2.5595     0.0299    -0.5725     2.6609     0.3824     0.3144     0.2890     0.3275     0.4270
  34     0.9721   119.5118     2.0756    -0.3069    -0.7710     2.2184     0.3702     0.3106     0.3271     0.3055     0.4511
  35     0.9738   118.8675     2.3157     0.2110    -0.1034     2.3672     0.3733     0.2964     0.3092     0.2930     0.4283
  36     0.9754   119.9300     2.3206     0.0353    -0.4326     2.4404     0.3614     0.3035     0.3073     0.3177     0.4319
  37     0.9771   119.2601     2.2434     0.4010    -0.0605     2.4139     0.3760     0.2861     0.2727     0.2544     0.3953
  38     0.9788   119.7265     2.5879     0.0508    -0.2080     2.6874     0.3608     0.3217     0.3064     0.2997     0.4442
  39     0.9805   119.0129     3.1345     0.0931    -0.5210     3.2372     0.3897     0.3329     0.2958     0.2863     0.4453
  40     0.9821   118.9556     3.1649     0.7239     1.0952     3.3701     0.3729     0.2649     0.2798     0.2699     0.3853
  41     0.9838   118.9658     3.0676    -0.0470    -0.4274     3.2243     0.3845     0.3007     0.3212     0.3024     0.4400
  42     0.9855   118.0146     2.4818     0.3477     0.1879     2.6026     0.3587     0.3133     0.2873     0.2956     0.4251
  43     0.9871   118.7951     2.5305     0.2731     0.2741     2.6284     0.3377     0.2583     0.3072     0.2890     0.4014
  44     0.9888   118.9148     2.5735    -0.0471     0.0147     2.7221     0.4298     0.3079     0.2898     0.3053     0.4228
  45     0.9905   118.9245     2.1205     0.3312    -0.4237     2.2510     0.3594     0.3184     0.3503     0.2962     0.4734
  46     0.9922   118.9837     2.4048    -0.0479    -0.1420     2.4741     0.3610     0.2657     0.2899     0.2922     0.3932
  47     0.9938   118.1587     2.4871     0.0845    -0.6248     2.5850     0.3564     0.3178     0.3252     0.3257     0.4547
  48     0.9955   118.1394     2.0893     0.1951    -1.0503     2.2735     0.3814     0.3100     0.2824     0.3023     0.4193
  49     0.9972   118.7794     2.7967     0.2553    -0.3950     3.0395     0.3692     0.2959     0.2902     0.2997     0.4145
  50     0.9988   119.1215     2.0453     0.8629    -0.3012     2.4197     0.3843     0.3074     0.3232     0.3353     0.4460
  51     1.0005   117.9658     2.7436     0.7939    -0.3762     2.9454     0.3534     0.2760     0.2849     0.2865     0.3967
  52     1.0022   118.2514     2.1230     0.6781    -0.2174     2.3591     0.3569     0.3057     0.2962     0.2999     0.4256
  53     1.0039   118.6077     2.4830     0.0480    -0.5946     2.6586     0.3699     0.2928     0.2934     0.2837     0.4145
  54     1.0055   118.0637     1.8312     0.3455    -0.5535     2.0756     0.3709     0.3277     0.3003     0.2694     0.4445
  55     1.0072   117.9169     2.4654     0.7027    -0.4980     2.6896     0.3757     0.2720     0.3180     0.2743     0.4185
  56     1.0089   117.5967     2.5032     0.5572    -0.5848     2.5873     0.3742     0.2574     0.3353     0.2790     0.4227
  57     1.0105   117.5953     2.5875     0.0103    -0.2192     2.6830     0.3246     0.2914     0.2899     0.2806     0.4111
  58     1.0122   118.1778     2.2529     0.0167    -0.7632     2.2649     0.3502     0.3211     0.2936     0.2946     0.4351
  59     1.0139   117.9842     2.3389     0.5758    -0.4718     2.5133     0.3447     0.3059     0.2635     0.2866     0.4037
  60     1.0156   118.4090     2.1292     0.3572    -0.9276     2.2511     0.3160     0.3157     0.3285     0.3233     0.4556
  61     1.0172   117.9687     2.0642     0.4580     0.0955     2.2064     0.3587     0.2934     0.3011     0.2839     0.4204
  62     1.0189   118.3085     2.3482     0.4027    -0.2194     2.4834     0.3245     0.2905     0.3136     0.3201     0.4275
  63     1.0206   117.4690     1.8326     0.1971    -0.3358     1.9478     0.3319     0.2973     0.3424     0.2850     0.4534
  64     1.0222   117.3348     2.5614     0.3611    -0.5642     2.6726     0.3065     0.2693     0.3039     0.3025     0.4061
  65     1.0239   116.8779     2.4041     0.7943    -0.0351     2.7242     0.3687     0.3013     0.3027     0.2881     0.4271
  66     1.0256   116.9404     2.1462     0.9262    -0.5159     2.4838     0.3535     0.3105     0.3075     0.2915     0.4370
  67     1.0273   116.0533     1.8689     0.2810    -0.2719     2.0254     0.3899     0.3247     0.3266     0.2855     0.4606
  68     1.0289   117.1582     2.8464     0.3022     0.3457     3.0100     0.5880     0.5347     0.4757     0.4663     0.7157
  69     1.0306   114.8695     2.4316     1.0828    -0.1224     2.8782     0.6893     0.5684     0.4918     0.5777     0.7516
  70     1.0323   117.5708     1.6934     0.9037    -0.4497     2.0505     0.4292     0.3802     0.3724     0.3260     0.5322
  71     1.0340   117.5026     1.8971     0.8005    -0.6275     2.1595     0.3329     0.3080     0.2924     0.3089     0.4247
  72     1.0356   118.0448     2.4237     0.4431     0.0201     2.5734     0.2950     0.2891     0.3304     0.3229     0.4390
  73     1.0373   117.3160     1.6653     0.9048     0.2398     1.9959     0.3221     0.3017     0.3155     0.2712     0.4365
  74     1.0390   116.4802     2.0014     0.5881     0.1182     2.0948     0.3281     0.2894     0.2967     0.3030     0.4145
  75     1.0406   114.9294     2.3802     1.3531    -0.0347     2.8178     0.3600     0.3242     0.3234     0.3171     0.4579
  76     1.0423   117.1305     1.5931     0.4356    -0.3125     1.8767     0.3199     0.3049     0.3074     0.3532     0.4329
  77     1.0440   116.3787     1.9229     0.4619    -0.2370     2.1936     0.3400     0.2712     0.2929     0.2868     0.3992
  78     1.0457   116.3615     1.5973     0.9877    -0.0634     2.0076     0.3127     0.3015     0.3220     0.2872     0.4411
  79     1.0473   116.5749     1.7400     1.0704    -0.9162     2.1256     0.3333     0.2921     0.3124     0.3002     0.4277
  80     1.0490   115.8689     1.6757     0.9564    -0.5201     2.0686     0.2972     0.2940     0.3177     0.2880     0.4328
  81     1.0507   116.1929     1.8473     1.0947    -0.7162     2.2645     0.3450     0.3128     0.3683     0.3051     0.4832
  82     1.0523   115.3912     2.2423     1.2461    -0.4640     2.7093     0.4258     0.3534     0.3258     0.3255     0.4806
  83     1.0540   116.4235     1.7195     0.5368    -0.0340     1.9610     0.3130     0.2695     0.2949     0.3168     0.3995
  84     1.0557   115.9199     1.2730     1.8617    -0.5642     2.3931     0.3484     0.2915     0.3106     0.3003     0.4260
  85     1.0574   115.8114     2.0007     1.4225    -0.4659     2.5664     0.2860     0.2877     0.3078     0.2682     0.4213
  86     1.0590   116.2954     1.8890     1.1470    -0.3335     2.3649     0.2981     0.2983     0.2767     0.2886     0.4069
  87     1.0607   115.8398     1.7010     1.2376    -0.2487     2.2438     0.3010     0.2965     0.3061     0.2931     0.4262
  88     1.0624   115.3603     1.7095     1.4739    -0.9492     2.4508     0.3018     0.2933     0.2518     0.2633     0.3866
  89     1.0640   114.9442     2.1282     1.5613     0.0891     2.7281     0.3227     0.3242     0.2946     0.2671     0.4381
  90     1.0657   115.4780     1.7587     1.4142    -0.3433     2.4854     0.3043     0.2935     0.2968     0.3156     0.4174
  91     1.0674   115.3589     2.2101     1.4263     0.3076     2.6945     0.3095     0.2710     0.3210     0.2839     0.4201
  92     1.0691   115.3491     1.5914     1.4322    -0.1360     2.3289     0.3188     0.3079     0.2948     0.2657     0.4263
  93     1.0707   115.2380     1.1820     0.7554    -0.1438     1.5308     0.3142     0.3276     0.2841     0.3348     0.4336
  94     1.0724   115.3346     1.4729     1.0839     0.6620     1.9825     0.2999     0.3075     0.3105     0.2446     0.4370
  95     1.0741   115.1609     1.5710     1.4637     0.3357     2.2595     0.3052     0.3084     0.2901     0.2765     0.4234
  96     1.0757   115.3525     1.8682     1.0566     0.1801     2.2374     0.3360     0.2883     0.2868     0.2886     0.4067
  97     1.0774   115.2935     1.5104     1.1379     0.0322     2.0154     0.3197     0.2947     0.2954     0.3025     0.4173
  98     1.0791   114.9736     1.4265     1.1987    -0.0018     2.0253     0.3032     0.3041     0.3063     0.2573     0.4316
  99     1.0808   115.1110     1.1331     1.8710     0.2918     2.2217     0.3128     0.3365     0.2785     0.2997     0.4368
 100     1.0824   114.0268     1.5454     2.2174     0.1676     2.8302     0.3205     0.2733     0.2815     0.2744     0.3923
 101     1.0841   114.6018     2.0054     2.5708     0.0036     3.2994     0.3287     0.2728     0.3075     0.3061     0.4111
 102     1.0858   114.6071     1.8307     3.1869     0.2029     3.7683     0.4712     0.3722     0.4326     0.4082     0.5707
 103     1.0875   112.6362     0.7439     7.8886    -2.4513     8.5235     2.3552     1.6218     1.9454     1.7154     2.5327
 104     1.0925   121.9641    18.7877     6.0143    -6.0149    23.2166     4.1507     4.1715     5.0989     4.4731     6.5879
 105     1.0941   113.7951     1.5283     3.2192    -0.0677     3.6149     0.3807     0.3369     0.3661     0.3588     0.4975
 106     1.0958   116.0835     1.1223     0.9086    -0.1687     1.6039     0.3157     0.3049     0.2722     0.2709     0.4087
 107     1.0975   114.9420     1.4255     1.4227     0.1084     2.2058     0.3040     0.2679     0.2880     0.2755     0.3934
 108     1.0992   114.2931     1.3265     1.5995    -0.3695     2.2328     0.3148     0.2955     0.2972     0.2559     0.4191
 109     1.1008   114.6614     0.9454     1.5695    -0.3069     2.0115     0.3251     0.3228     0.2996     0.2937     0.4404
 110     1.1025   110.6210     1.8221     2.0093    -0.9389     2.8442     0.4949     0.4193     0.4335     0.4387     0.6031
 111     1.1042   115.7213     1.3788     1.9841     0.4775     2.5244     0.3792     0.4057     0.3212     0.3494     0.5175
 112     1.1058   114.7662     1.1996     1.4274    -0.1305     1.9834     0.3311     0.3185     0.3520     0.3152     0.4747
 113     1.1075   112.0506     0.6958     1.4484    -0.2313     1.8497     0.3791     0.3641     0.3788     0.3265     0.5255
 114     1.1092   115.1957     1.5406     1.0688    -0.1583     1.9201     0.3177     0.2728     0.2753     0.3062     0.3876
 115     1.1109   114.3949     1.0954     1.4397     0.0272     1.9050     0.3390     0.3187     0.2931     0.2918     0.4329
 116     1.1125   111.9496     2.6640     1.1269    -0.5014     2.9882     0.3798     0.4048     0.3115     0.2838     0.5108
 117     1.1142   114.2692     1.3515     1.2253    -0.0884     1.8857     0.2843     0.3029     0.2554     0.3148     0.3962
 118     1.1159   113.2619     1.3779     0.9981     0.0237     1.8044     0.2826     0.2944     0.2869     0.2894     0.4111
 119     1.1175   113.7679     0.9294     1.2833     0.0842     1.7203     0.3072     0.3018     0.2752     0.2638     0.4085
 120     1.1192   114.1906     1.0042     1.1297    -0.0789     1.6535     0.3030     0.2745     0.2967     0.2620     0.4042
 121     1.1209   113.6641     1.1448     1.3864     0.0410     1.9604     0.2871     0.2859     0.2989     0.2794     0.4136
 122     1.1226   112.9864     0.8392     1.6361     0.0651     2.0262     0.2834     0.3259     0.3254     0.2887     0.4605
 123     1.1242   112.5556     0.4299     1.8200    -0.0387     2.2345     0.3659     0.3436     0.3547     0.3229     0.4938
 124     1.1259   113.5611     0.3378     2.2034    -0.4090     2.3963     0.3868     0.2834     0.3106     0.3379     0.4205
 125     1.1276   112.7834     1.3084     1.7813     0.0294     2.4686     0.3456     0.3340     0.3735     0.3473     0.5010
 126     1.1292   114.8210     1.2703     1.3049    -0.2853     1.9540     0.3178     0.2752     0.2939     0.2873     0.4026
 127     1.1309   114.2215     1.0945     1.2143    -0.0755     1.7873     0.3056     0.2951     0.2604     0.2945     0.3935
 128     1.1326   114.7811     0.4531     1.7369    -0.0588     1.9187     0.2741     0.3035     0.2958     0.2624     0.4238
 129     1.1343   115.0790     1.9280     1.7269    -0.0386     2.6993     0.3744     0.3957     0.2948     0.3539     0.4935
 130     1.1359   104.3594     2.2032     5.0613    -0.4624     5.6297     0.6181     0.4890     0.4516     0.4625     0.6656
 131     1.1376   111.4351     0.8714     1.9641     0.7541     2.3347     0.4235     0.3214     0.3364     0.3692     0.4653
 132     1.1393   114.8165     0.8998     1.7833     0.0918     2.0279     0.3440     0.3078     0.2749     0.2975     0.4127
 133     1.1410   112.9709     0.8879     1.8087     0.2123     2.1419     0.4438     0.3592     0.3236     0.3535     0.4835
 134     1.1426   113.7051     0.4956     1.3213    -0.8101     1.5852     0.3587     0.3221     0.3323     0.3166     0.4628
 135     1.1443   116.3827     0.7100     1.0538    -0.2485     1.6423     0.4016     0.4160     0.3694     0.4028     0.5564
 136     1.1460   113.2603     1.4580     1.5397    -0.2991     2.2368     0.4742     0.4249     0.4182     0.4099     0.5961
 137     1.1476   111.7282    -0.0170     1.6404    -0.6449     1.9811     0.5291     0.4293     0.4733     0.4467     0.6389
 138     1.1493   111.5530     0.5751     0.9000     0.4764     1.4128     0.5158     0.4658     0.4371     0.5045     0.6388
 139     1.1510   110.3474     1.7067     1.4454    -0.0877     2.4517     0.4979     0.4598     0.3829     0.3949     0.5984
 140     1.1527   113.7424     1.1165     1.4977     0.2734     2.0440     0.3685     0.3457     0.2943     0.3893     0.4541
 141     1.1543   113.6609     0.7831     1.4008    -0.4511     1.6792     0.3084     0.3576     0.3229     0.3193     0.4818
 142     1.1560   114.2324     1.2756     1.7071    -0.1144     2.2395     0.3212     0.3178     0.3204     0.3059     0.4513
 143     1.1577   114.3370     1.2742     1.5627    -0.1796     2.1135     0.3290     0.2832     0.3035     0.3242     0.4151
 144     1.1593   113.3290     0.5338     1.4239    -1.0133     1.6437     0.3990     0.4214     0.3334     0.3595     0.5374
 145     1.1610   111.0876     0.9745     1.4631    -1.0743     1.9662     0.4233     0.3545     0.3605     0.3585     0.5056
 146     1.1627   113.0697     0.7414     0.8835    -0.5576     1.4781     0.4467     0.3626     0.3618     0.3940     0.5122
 147     1.1644   112.7252     0.7683     1.6464    -0.3682     2.1013     0.3677     0.3447     0.3189     0.3427     0.4696
 148     1.1660   113.3957     0.5831     1.0410     0.2166     1.4626     0.3453     0.3363     0.3095     0.3122     0.4570
 149     1.1677   113.3224     1.4740     1.9614    -0.9201     2.6110     0.4219     0.3976     0.4191     0.3632     0.5777
 150     1.1694   112.3096    -0.4335     0.8938     0.3863     1.6984     0.9158     0.8350     0.8980     0.8440     1.2262
 151     1.1710   116.1454     8.4987    -7.5382    -0.8511    13.6350     6.1080     5.0818     3.4228     2.1923     6.1270
 152     1.1827   116.5724     3.4537    -0.8543     0.7991     4.1257     1.0773     1.1868     1.1586     1.1890     1.6585
 153     1.1844   113.6206     0.2635     1.2737     0.0036     2.0240     0.5194     0.6264     0.4838     0.5697     0.7915
 154     1.1861   113.2841    -0.2691     1.1851    -0.0579     1.3555     0.3913     0.3447     0.3229     0.3421     0.4723
